%time,field.header.seq,field.header.stamp,field.header.frame_id,field.joint_angle,field.servo1_position,field.servo2_position,field.u1,field.u2,field.u3
1494360095580806970,529688,1494360095573977027,,579.0,0.0,0.0,0.0,0.0,0.0
1494360095585067033,529688,1494360095573977027,,579.0,0.0,0.0,0.0,0.0,0.0
1494360095590512990,529689,1494360095578977027,,592.0,0.0,0.0,0.0,0.0,0.0
1494360095598817110,529691,1494360095589977027,,580.0,0.0,0.0,0.0,0.0,0.0
1494360095602807044,529692,1494360095594977027,,580.0,0.0,0.0,0.0,0.0,0.0
1494360095609158039,529693,1494360095599977027,,593.0,0.0,0.0,0.0,0.0,0.0
1494360095617906093,529695,1494360095609977027,,579.0,0.0,0.0,0.0,0.0,0.0
1494360095626848936,529696,1494360095614977027,,581.0,0.0,0.0,0.0,0.0,0.0
1494360095632358074,529698,1494360095625977027,,592.0,0.0,0.0,0.0,0.0,0.0
1494360095638324975,529699,1494360095630977027,,579.0,0.0,0.0,0.0,0.0,0.0
1494360095642764091,529700,1494360095635977027,,581.0,0.0,0.0,0.0,0.0,0.0
1494360095649734020,529701,1494360095640977027,,594.0,0.0,0.0,0.0,0.0,0.0
1494360095653498888,529702,1494360095645977027,,591.0,0.0,0.0,0.0,0.0,0.0
1494360095660157918,529703,1494360095650977027,,578.0,0.0,0.0,0.0,0.0,0.0
1494360095668521881,529704,1494360095655977027,,582.0,0.0,0.0,0.0,0.0,0.0
1494360095676445960,529706,1494360095665977027,,590.0,0.0,0.0,0.0,0.0,0.0
1494360095680509090,529707,1494360095671977027,,577.0,0.0,0.0,0.0,0.0,0.0
1494360095686151981,529708,1494360095676977027,,583.0,0.0,0.0,0.0,0.0,0.0
1494360095692404985,529709,1494360095681977027,,595.0,0.0,0.0,0.0,0.0,0.0
1494360095698133945,529711,1494360095691977027,,577.0,0.0,0.0,0.0,0.0,0.0
1494360095702641963,529712,1494360095696977027,,583.0,0.0,0.0,0.0,0.0,0.0
1494360095709075927,529713,1494360095701977027,,596.0,0.0,0.0,0.0,0.0,0.0
1494360095716470003,529714,1494360095706977027,,588.0,0.0,0.0,0.0,0.0,0.0
1494360095724636077,529716,1494360095717977027,,585.0,0.0,0.0,0.0,0.0,0.0
1494360095730052947,529717,1494360095722977027,,596.0,0.0,0.0,0.0,0.0,0.0
1494360095736764907,529718,1494360095727977027,,587.0,0.0,0.0,0.0,0.0,0.0
1494360095744817018,529720,1494360095737977027,,586.0,0.0,0.0,0.0,0.0,0.0
1494360095749910116,529721,1494360095742977027,,596.0,0.0,0.0,0.0,0.0,0.0
1494360095758523941,529722,1494360095747977027,,586.0,0.0,0.0,0.0,0.0,0.0
1494360095766499996,529724,1494360095757977027,,587.0,0.0,0.0,0.0,0.0,0.0
1494360095774595975,529725,1494360095762977027,,596.0,0.0,0.0,0.0,0.0,0.0
1494360095784195899,529728,1494360095777977027,,588.0,0.0,0.0,0.523598790169,0.0,0.0
1494360095789746999,529729,1494360095782977027,,596.0,0.0,0.0,0.523598790169,0.0,0.0
1494360095795275926,529729,1494360095782977027,,596.0,0.0,0.0,0.523598790169,0.0,0.0
1494360095803488969,529731,1494360095793977027,,577.0,0.0,0.0,0.523598790169,0.0,0.0
1494360095810600042,529733,1494360095803977027,,596.0,0.0,0.0,0.523598790169,0.0,0.0
1494360095815567970,529733,1494360095803977027,,596.0,0.0,0.0,0.523598790169,0.0,0.0
1494360095820875883,529735,1494360095813977027,,577.0,0.0,0.0,0.523598790169,0.0,0.0
1494360095826574087,529736,1494360095818977027,,590.0,0.0,0.0,0.523598790169,0.0,0.0
1494360095832916975,529737,1494360095823977027,,584.0,-0.436332315207,0.191986218095,0.523598790169,0.0,0.0
1494360095841545104,529739,1494360095833977027,,556.0,-0.418879032135,0.191986218095,0.523598790169,0.0,0.0
1494360095850440025,529741,1494360095844977027,,573.0,-0.279252678156,0.139626339078,0.523598790169,0.0,0.0
1494360095858932018,529742,1494360095849977027,,559.0,-0.209439516068,0.122173048556,0.523598790169,0.0,0.0
1494360095868103027,529744,1494360095859977027,,573.0,-0.069813169539,0.0872664600611,0.523598790169,0.0,0.0
1494360095873832941,529745,1494360095864977027,,578.0,0.0,0.0872664600611,0.523598790169,0.0,0.0
1494360095882612943,529747,1494360095874977027,,565.0,0.0872664600611,0.0523598790169,0.523598790169,0.0,0.0
1494360095891788959,529749,1494360095885977027,,580.0,0.191986218095,0.0523598790169,0.523598790169,0.0,0.0
1494360095900516033,529750,1494360095890977027,,568.0,0.226892799139,0.0523598790169,0.523598790169,0.0,0.0
1494360095908953905,529752,1494360095900977027,,586.0,0.38397243619,0.0,0.523598790169,0.0,0.0
1494360095917988061,529754,1494360095910977027,,574.0,0.453785598278,0.0,0.523598790169,0.0,0.0
1494360095926137924,529755,1494360095915977027,,577.0,0.453785598278,0.0,0.523598790169,0.0,0.0
1494360095934381961,529757,1494360095926977027,,588.0,0.471238911152,0.0,0.523598790169,0.0,0.0
1494360095939240932,529758,1494360095931977027,,575.0,0.471238911152,0.0,0.523598790169,0.0,0.0
1494360095947864055,529760,1494360095941977027,,592.0,0.488692194223,0.0,0.523598790169,0.0,0.0
1494360095957305908,529762,1494360095951977027,,575.0,0.488692194223,0.0,0.523598790169,0.0,0.0
1494360095962595939,529762,1494360095951977027,,575.0,0.488692194223,0.0,0.523598790169,0.0,0.0
1494360095971146106,529764,1494360095961977027,,593.0,0.506145477295,0.0,0.523598790169,0.0,0.0
1494360095979428052,529766,1494360095972977027,,575.0,0.506145477295,0.0,0.523598790169,0.0,0.0
1494360095987847089,529767,1494360095977977027,,580.0,0.506145477295,0.0,0.523598790169,0.0,0.0
1494360095997572898,529770,1494360095992977027,,575.0,0.523598790169,0.0,0.523598790169,0.0,0.0
1494360096006248950,529771,1494360095997977027,,582.0,0.523598790169,0.0,0.523598790169,0.0,0.0
1494360096015161037,529773,1494360096008977027,,586.0,0.523598790169,0.0,0.523598790169,0.0,0.0
1494360096021380901,529774,1494360096013977027,,575.0,0.523598790169,0.0,0.523598790169,0.0,0.0
1494360096030589103,529776,1494360096022977027,,594.0,0.523598790169,0.0,0.523598790169,0.0,0.0
1494360096039851903,529778,1494360096032977027,,575.0,0.523598790169,0.0,0.523598790169,0.0,0.0
1494360096044267892,529778,1494360096032977027,,575.0,0.523598790169,0.0,0.523598790169,0.0,0.0
1494360096049561023,529779,1494360096037977027,,584.0,0.523598790169,0.0,0.523598790169,0.0,0.0
1494360096058286905,529782,1494360096053977027,,575.0,0.523598790169,0.0,0.523598790169,0.0,0.0
1494360096062918901,529782,1494360096053977027,,575.0,0.523598790169,0.0,0.523598790169,0.0,0.0
1494360096069097042,529783,1494360096058977027,,585.0,0.523598790169,0.0,0.523598790169,0.0,0.0
1494360096074995994,529785,1494360096068977027,,583.0,0.523598790169,0.0,0.523598790169,0.0,0.0
1494360096080225944,529786,1494360096073977027,,576.0,0.523598790169,0.0,0.523598790169,0.0,0.0
1494360096085948944,529786,1494360096073977027,,576.0,0.523598790169,0.0,0.523598790169,0.0,0.0
1494360096092778921,529788,1494360096083977027,,594.0,0.523598790169,0.0,0.523598790169,0.0,0.0
1494360096100807905,529790,1494360096094977027,,576.0,0.523598790169,0.0,0.523598790169,0.0,0.0
1494360096109503984,529791,1494360096099977027,,588.0,0.523598790169,0.0,0.523598790169,0.0,0.0
1494360096115605115,529793,1494360096109977027,,581.0,0.523598790169,0.0,0.523598790169,0.0,0.0
1494360096120234012,529794,1494360096114977027,,576.0,0.523598790169,0.0,0.523598790169,0.0,0.0
1494360096125148057,529795,1494360096119977027,,589.0,0.523598790169,0.0,0.523598790169,0.0,0.0
1494360096128851890,529795,1494360096119977027,,589.0,0.523598790169,0.0,0.523598790169,0.0,0.0
1494360096132184028,529796,1494360096124977027,,593.0,0.523598790169,0.0,0.523598790169,0.0,0.0
1494360096138168096,529797,1494360096129977027,,580.0,0.523598790169,0.0,0.523598790169,0.0,0.0
1494360096145977973,529799,1494360096140977027,,590.0,0.523598790169,0.0,0.523598790169,0.0,0.0
1494360096154616117,529800,1494360096145977027,,593.0,0.523598790169,0.0,0.523598790169,0.0,0.0
1494360096158819913,529801,1494360096150977027,,579.0,0.523598790169,0.0,0.523598790169,0.0,0.0
1494360096163280010,529802,1494360096155977027,,577.0,0.523598790169,0.0,0.523598790169,0.0,0.0
1494360096170726060,529803,1494360096160977027,,590.0,0.523598790169,0.0,0.523598790169,0.0,0.0
1494360096176753044,529804,1494360096165977027,,592.0,0.523598790169,0.0,0.523598790169,0.0,0.0
1494360096185370922,529807,1494360096181977027,,591.0,0.523598790169,0.0,0.523598790169,0.0,0.0
1494360096189543962,529807,1494360096181977027,,591.0,0.523598790169,0.0,0.523598790169,0.0,0.0
1494360096193819999,529808,1494360096186977027,,591.0,0.523598790169,0.0,0.523598790169,0.0,0.0
1494360096198539018,529809,1494360096191977027,,578.0,0.523598790169,0.0,0.523598790169,0.0,0.0
1494360096206617116,529811,1494360096201977027,,592.0,0.523598790169,0.0,0.523598790169,0.0,0.0
1494360096214370012,529812,1494360096206977027,,590.0,0.523598790169,0.0,0.523598790169,0.0,0.0
1494360096221112012,529813,1494360096211977027,,577.0,0.523598790169,0.38397243619,0.523598790169,0.0,0.0
1494360096227859020,529815,1494360096222977027,,593.0,0.523598790169,0.0,0.523598790169,0.0,0.0
1494360096236052036,529816,1494360096227977027,,589.0,0.523598790169,0.0,0.523598790169,0.0,0.0
1494360096242980003,529818,1494360096237977027,,580.0,0.523598790169,0.0,0.523598790169,0.0,0.0
1494360096247956991,529819,1494360096242977027,,593.0,0.523598790169,0.0,0.523598790169,0.0,0.0
1494360096256599903,529820,1494360096247977027,,589.0,0.523598790169,0.0,0.523598790169,0.0,0.0
1494360096264389038,529822,1494360096257977027,,580.0,0.523598790169,0.0,0.523598790169,0.0,0.0
1494360096268877983,529823,1494360096262977027,,594.0,0.523598790169,0.0,0.523598790169,0.0,0.0
1494360096276273012,529824,1494360096268977027,,588.0,0.523598790169,0.0,0.523598790169,0.0,0.0
1494360096285197973,529826,1494360096277977027,,581.0,0.523598790169,0.0,0.523598790169,0.0,0.0
1494360096293574094,529827,1494360096282977027,,594.0,0.523598790169,0.0,0.523598790169,0.0,0.0
1494360096301289081,529829,1494360096292977027,,576.0,0.523598790169,0.0,0.523598790169,0.0,0.0
1494360096308573961,529831,1494360096302977027,,594.0,0.523598790169,0.0,0.523598790169,0.0,0.0
1494360096312033891,529832,1494360096308977027,,586.0,0.523598790169,0.0,0.523598790169,0.0,0.0
1494360096319015979,529832,1494360096308977027,,586.0,0.523598790169,0.0,0.523598790169,0.0,0.0
1494360096325496912,529834,1494360096318977027,,584.0,0.523598790169,0.0,0.523598790169,0.0,0.0
1494360096333692073,529836,1494360096328977027,,585.0,0.523598790169,0.0,0.523598790169,0.0,0.0
1494360096342518091,529837,1494360096333977027,,575.0,0.523598790169,0.0,0.523598790169,0.0,0.0
1494360096350719928,529839,1494360096343977027,,594.0,0.523598790169,0.0,0.523598790169,0.0,0.0
1494360096356605052,529840,1494360096349977027,,583.0,0.523598790169,0.0,0.523598790169,0.0,0.0
1494360096365120887,529841,1494360096354977027,,575.0,0.523598790169,0.0,0.523598790169,0.0,0.0
1494360096374471902,529844,1494360096369977027,,582.0,0.523598790169,0.0,0.523598790169,0.0,0.0
1494360096383538007,529845,1494360096374977027,,576.0,0.523598790169,0.0,0.523598790169,0.0,0.0
1494360096390541076,529847,1494360096384977027,,594.0,0.471238911152,0.0,0.523598790169,0.0,0.0
1494360096399183988,529848,1494360096389977027,,580.0,0.523598790169,0.0,0.523598790169,0.0,0.0
1494360096408126115,529850,1494360096400977027,,588.0,0.523598790169,0.0,0.523598790169,0.0,0.0
1494360096416377067,529852,1494360096410977027,,580.0,0.523598790169,0.0,0.523598790169,0.0,0.0
1494360096422404050,529852,1494360096410977027,,580.0,0.523598790169,0.0,0.523598790169,0.0,0.0
1494360096430387973,529854,1494360096420977027,,589.0,0.523598790169,0.0,0.523598790169,0.0,0.0
1494360096436414003,529856,1494360096430977027,,579.0,0.523598790169,0.0,0.523598790169,0.0,0.0
1494360096444840908,529857,1494360096436977027,,577.0,0.523598790169,0.0,0.523598790169,0.0,0.0
1494360096450874090,529858,1494360096441977027,,590.0,0.523598790169,0.0,0.523598790169,0.0,0.0
1494360096456693887,529860,1494360096451977027,,578.0,0.523598790169,0.0,0.523598790169,0.0,0.0
1494360096465322017,529861,1494360096456977027,,578.0,0.523598790169,0.0,0.523598790169,0.0,0.0
1494360096472444057,529863,1494360096466977027,,591.0,0.523598790169,0.0,0.523598790169,0.0,0.0
1494360096477751016,529864,1494360096471977027,,578.0,0.523598790169,0.0,0.523598790169,0.0,0.0
1494360096486537933,529865,1494360096477977027,,577.0,0.523598790169,0.0,0.523598790169,0.0,0.0
1494360096495611906,529867,1494360096487977027,,591.0,0.523598790169,0.0,0.523598790169,0.0,0.0
1494360096504939079,529869,1494360096497977027,,578.0,0.523598790169,0.0,0.523598790169,0.0,0.0
1494360096513475894,529871,1494360096507977027,,590.0,0.523598790169,0.0,0.523598790169,0.0,0.0
1494360096522716999,529873,1494360096517977027,,579.0,0.523598790169,0.0,0.523598790169,0.0,0.0
1494360096528534889,529873,1494360096517977027,,579.0,0.523598790169,0.0,0.523598790169,0.0,0.0
1494360096536976099,529875,1494360096528977027,,589.0,0.523598790169,0.0,0.523598790169,0.0,0.0
1494360096543160915,529877,1494360096537977027,,580.0,0.523598790169,0.0,0.523598790169,0.0,0.0
1494360096551300048,529878,1494360096542977027,,594.0,0.523598790169,0.0,0.523598790169,0.0,0.0
1494360096559364080,529880,1494360096552977027,,576.0,0.523598790169,0.0,0.523598790169,0.0,0.0
1494360096567833900,529881,1494360096557977027,,581.0,0.523598790169,0.0,0.523598790169,0.0,0.0
1494360096576709032,529883,1494360096568977027,,587.0,0.523598790169,0.0,0.523598790169,0.0,0.0
1494360096582926988,529885,1494360096578977027,,582.0,0.523598790169,0.0,0.523598790169,0.0,0.0
1494360096588056087,529885,1494360096578977027,,582.0,0.523598790169,0.0,0.523598790169,0.0,0.0
1494360096596438884,529887,1494360096588977027,,586.0,0.523598790169,0.0,0.523598790169,0.0,0.0
1494360096602384090,529888,1494360096593977027,,575.0,0.523598790169,0.0,0.523598790169,0.0,0.0
1494360096610785007,529889,1494360096598977027,,583.0,0.523598790169,0.0,0.523598790169,0.0,0.0
1494360096617964982,529891,1494360096609977027,,585.0,0.523598790169,0.0,0.523598790169,0.0,0.0
1494360096627010107,529893,1494360096619977027,,584.0,0.523598790169,0.0,0.523598790169,0.0,0.0
1494360096633761882,529894,1494360096624977027,,594.0,0.523598790169,0.0,0.523598790169,0.0,0.0
1494360096642383098,529896,1494360096634977027,,575.0,0.523598790169,0.0,0.523598790169,0.0,0.0
1494360096646838903,529897,1494360096639977027,,586.0,0.523598790169,0.0,0.523598790169,0.0,0.0
1494360096653561115,529898,1494360096644977027,,594.0,0.523598790169,0.0,0.523598790169,0.0,0.0
1494360096659447908,529899,1494360096650977027,,583.0,0.523598790169,0.0,0.523598790169,0.0,0.0
1494360096667176961,529901,1494360096660977027,,587.0,0.523598790169,0.0,0.523598790169,0.0,0.0
1494360096671823978,529901,1494360096660977027,,587.0,0.523598790169,0.0,0.523598790169,0.0,0.0
1494360096681570053,529904,1494360096675977027,,576.0,0.523598790169,0.0,0.523598790169,0.0,0.0
1494360096690398931,529905,1494360096680977027,,588.0,0.523598790169,0.0,0.523598790169,0.0,0.0
1494360096699457883,529907,1494360096691977027,,581.0,0.523598790169,0.0,0.523598790169,0.0,0.0
1494360096705904960,529909,1494360096701977027,,589.0,0.523598790169,0.0,0.523598790169,0.0,0.0
1494360096712636947,529910,1494360096706977027,,593.0,0.523598790169,0.0,0.523598790169,0.0,0.0
1494360096718854904,529911,1494360096711977027,,580.0,0.523598790169,0.0,0.523598790169,0.0,0.0
1494360096724831104,529912,1494360096716977027,,574.0,0.523598790169,0.0,0.523598790169,0.0,0.0
1494360096733303070,529914,1494360096726977027,,593.0,0.523598790169,0.0,0.523598790169,0.0,0.0
1494360096742888927,529916,1494360096737977027,,575.0,0.523598790169,0.0,0.523598790169,0.0,0.0
1494360096748123884,529917,1494360096742977027,,591.0,0.523598790169,0.0,0.523598790169,0.0,0.0
1494360096755949020,529918,1494360096747977027,,592.0,0.523598790169,0.0,0.523598790169,0.0,0.0
1494360096762594938,529919,1494360096752977027,,578.0,0.523598790169,0.0,0.523598790169,0.0,0.0
1494360096771287918,529922,1494360096767977027,,591.0,0.523598790169,0.0,0.523598790169,0.0,0.0
1494360096780436992,529923,1494360096772977027,,577.0,0.523598790169,0.0,0.523598790169,0.0,0.0
1494360096787169933,529924,1494360096778977027,,578.0,0.523598790169,0.0,0.523598790169,0.0,0.0
1494360096795466899,529926,1494360096788977027,,590.0,0.523598790169,0.0,0.523598790169,0.0,0.0
1494360096804012060,529928,1494360096798977027,,579.0,0.523598790169,0.0,0.523598790169,0.0,0.0
1494360096813164949,529930,1494360096807977027,,589.0,0.523598790169,0.0,0.523598790169,0.0,0.0
1494360096818789958,529930,1494360096807977027,,589.0,0.523598790169,0.0,0.523598790169,0.0,0.0
1494360096827250957,529932,1494360096817977027,,580.0,0.523598790169,0.0,0.523598790169,0.0,0.0
1494360096836498975,529934,1494360096828977027,,588.0,0.523598790169,0.0,0.523598790169,0.0,0.0
1494360096842336893,529935,1494360096833977027,,576.0,0.523598790169,0.0,0.523598790169,0.0,0.0
1494360096850994110,529937,1494360096843977027,,594.0,0.523598790169,0.0,0.523598790169,0.0,0.0
1494360096859918117,529938,1494360096848977027,,588.0,0.523598790169,0.0,0.523598790169,0.0,0.0
1494360096866000890,529940,1494360096858977027,,582.0,0.523598790169,0.0,0.523598790169,0.0,0.0
1494360096872308969,529941,1494360096864977027,,594.0,0.523598790169,0.0,0.523598790169,0.0,0.0
1494360096878350973,529942,1494360096869977027,,587.0,0.523598790169,0.0,0.523598790169,0.0,0.0
1494360096883694887,529943,1494360096874977027,,575.0,0.523598790169,0.0,0.523598790169,0.0,0.0
1494360096888607025,529944,1494360096879977027,,583.0,0.523598790169,0.0,0.523598790169,0.0,0.0
1494360096895255088,529946,1494360096889977027,,585.0,0.523598790169,0.0,0.523598790169,0.0,0.0
1494360096899549961,529946,1494360096889977027,,585.0,0.523598790169,0.0,0.523598790169,0.0,0.0
1494360096907114982,529948,1494360096899977027,,584.0,0.523598790169,0.0,0.523598790169,0.0,0.0
1494360096914186000,529949,1494360096905977027,,594.0,0.523598790169,0.0,0.523598790169,0.0,0.0
1494360096920454978,529951,1494360096915977027,,575.0,0.523598790169,0.0,0.523598790169,0.0,0.0
1494360096927084922,529952,1494360096920977027,,585.0,0.523598790169,0.0,0.523598790169,0.0,0.0
1494360096935169935,529954,1494360096930977027,,583.0,0.523598790169,0.0,0.523598790169,0.0,0.0
1494360096940112113,529955,1494360096935977027,,575.0,0.523598790169,0.0,0.523598790169,0.0,0.0
1494360096948905944,529956,1494360096940977027,,586.0,0.523598790169,0.0,0.523598790169,0.0,0.0
1494360096953953981,529957,1494360096945977027,,594.0,0.523598790169,0.0,0.523598790169,0.0,0.0
1494360096961935997,529959,1494360096956977027,,576.0,0.523598790169,0.0,0.523598790169,0.0,0.0
1494360096967000961,529959,1494360096956977027,,576.0,0.523598790169,0.0,0.523598790169,0.0,0.0
1494360096974515914,529961,1494360096966977027,,594.0,0.523598790169,0.0,0.523598790169,0.0,0.0
1494360096979150056,529962,1494360096971977027,,581.0,0.523598790169,0.0,0.523598790169,0.0,0.0
1494360096985265970,529963,1494360096976977027,,574.0,0.523598790169,0.0,0.523598790169,0.0,0.0
1494360096993063926,529965,1494360096986977027,,594.0,0.523598790169,0.0,0.523598790169,0.0,0.0
1494360096998198986,529966,1494360096992977027,,580.0,0.523598790169,0.0,0.523598790169,0.0,0.0
1494360097004029989,529967,1494360096997977027,,575.0,0.523598790169,0.0,0.523598790169,0.0,0.0
1494360097010000944,529968,1494360097002977027,,590.0,0.523598790169,0.0,0.523598790169,0.0,0.0
1494360097018476963,529970,1494360097012977027,,579.0,0.523598790169,0.0,0.523598790169,0.0,0.0
1494360097027178049,529971,1494360097017977027,,575.0,0.523598790169,0.0,0.523598790169,0.0,0.0
1494360097033904075,529973,1494360097027977027,,593.0,0.523598790169,0.0,0.523598790169,0.0,0.0
1494360097042282104,529975,1494360097038977027,,576.0,0.523598790169,0.0,0.523598790169,0.0,0.0
1494360097051136016,529976,1494360097043977027,,591.0,0.523598790169,0.0,0.523598790169,0.0,0.0
1494360097059798002,529978,1494360097053977027,,578.0,0.523598790169,0.0,0.523598790169,0.0,0.0
1494360097068456888,529979,1494360097058977027,,577.0,0.523598790169,0.0,0.523598790169,0.0,0.0
1494360097075712919,529981,1494360097067977027,,590.0,0.523598790169,0.0,0.523598790169,0.0,0.0
1494360097084794044,529983,1494360097078977027,,578.0,0.523598790169,0.0,0.523598790169,0.0,0.0
